[DEFAULT]

version = pdfgetx3-1.0-r2007-20130131

# input and output specifications
dataformat = Qnm
inputfile = Naphthalene_300K_sum4_12.chi
backgroundfile = empty_capillary_RT_300K_sum_1_31.chi
outputtype = gr

# PDF calculation setup
mode = xray
wavelength = 0.1839
composition = C 10 H 8
bgscale = 1.3
rpoly = 0.9
qmaxinst = 24
qmin = 0
qmax = 19.5
rmin = 0
rmax = 30
rstep = 0.01

# End of config --------------------------------------------------------------

#### start data
#S 1
#L r($\AA$)  G($\AA^{-2}$)
0 0
0.01 0.00309018
0.02 0.00605306
0.03 0.00877688
0.04 0.0111589
0.05 0.013109
0.06 0.0145531
0.07 0.0154359
0.08 0.0157226
0.09 0.0153425
0.1 0.0143678
0.11 0.0128374
0.12 0.0108089
0.13 0.00835865
0.14 0.00557824
0.15 0.00257173
0.16 -0.000548321
0.17 -0.00365333
0.18 -0.00661681
0.19 -0.00932735
0.2 -0.0116826
0.21 -0.0135927
0.22 -0.0149839
0.23 -0.0158006
0.24 -0.0160074
0.25 -0.015533
0.26 -0.014443
0.27 -0.0127756
0.28 -0.0105843
0.29 -0.00793999
0.3 -0.00492842
0.31 -0.0016469
0.32 0.00179908
0.33 0.00529452
0.34 0.00871494
0.35 0.0119542
0.36 0.014914
0.37 0.0175068
0.38 0.0196583
0.39 0.0213087
0.4 0.022415
0.41 0.0228997
0.42 0.0227981
0.43 0.0221266
0.44 0.0209085
0.45 0.0191786
0.46 0.0169806
0.47 0.014364
0.48 0.0113812
0.49 0.00806204
0.5 0.00448159
0.51 0.00068567
0.52 -0.00329288
0.53 -0.00743117
0.54 -0.011717
0.55 -0.016149
0.56 -0.0207358
0.57 -0.0255109
0.58 -0.0304894
0.59 -0.0356956
0.6 -0.0411558
0.61 -0.0468914
0.62 -0.0529149
0.63 -0.059226
0.64 -0.0658075
0.65 -0.072636
0.66 -0.0796265
0.67 -0.0866825
0.68 -0.0936859
0.69 -0.100492
0.7 -0.106933
0.71 -0.112818
0.72 -0.117939
0.73 -0.121981
0.74 -0.124749
0.75 -0.12604
0.76 -0.125644
0.77 -0.123367
0.78 -0.119047
0.79 -0.112557
0.8 -0.103817
0.81 -0.092628
0.82 -0.0791544
0.83 -0.0635623
0.84 -0.0460315
0.85 -0.0268102
0.86 -0.00621327
0.87 0.0153808
0.88 0.037536
0.89 0.059733
0.9 0.0813816
0.91 0.101925
0.92 0.120799
0.93 0.137443
0.94 0.151321
0.95 0.161935
0.96 0.168842
0.97 0.171361
0.98 0.169362
0.99 0.162805
1 0.151646
1.01 0.135961
1.02 0.115954
1.03 0.0919571
1.04 0.064428
1.05 0.033794
1.06 0.000955442
1.07 -0.0331811
1.08 -0.0677176
1.09 -0.101695
1.1 -0.134113
1.11 -0.163955
1.12 -0.190214
1.13 -0.21155
1.14 -0.227103
1.15 -0.236225
1.16 -0.238227
1.17 -0.232557
1.18 -0.218815
1.19 -0.196774
1.2 -0.166385
1.21 -0.127287
1.22 -0.0801091
1.23 -0.0257111
1.24 0.0351622
1.25 0.1016
1.26 0.172542
1.27 0.246799
1.28 0.32308
1.29 0.399966
1.3 0.475849
1.31 0.549283
1.32 0.618867
1.33 0.683254
1.34 0.741188
1.35 0.791529
1.36 0.833279
1.37 0.86501
1.38 0.886194
1.39 0.896823
1.4 0.896707
1.41 0.885872
1.42 0.864555
1.43 0.833196
1.44 0.792426
1.45 0.742623
1.46 0.68501
1.47 0.621073
1.48 0.55203
1.49 0.479163
1.5 0.40379
1.51 0.327235
1.52 0.250796
1.53 0.175855
1.54 0.103698
1.55 0.0352822
1.56 -0.0285008
1.57 -0.0869057
1.58 -0.139347
1.59 -0.185405
1.6 -0.224829
1.61 -0.25719
1.62 -0.282623
1.63 -0.301709
1.64 -0.314837
1.65 -0.322509
1.66 -0.325316
1.67 -0.323919
1.68 -0.319025
1.69 -0.311262
1.7 -0.301451
1.71 -0.290419
1.72 -0.27881
1.73 -0.267203
1.74 -0.256095
1.75 -0.245894
1.76 -0.23691
1.77 -0.229423
1.78 -0.223549
1.79 -0.2192
1.8 -0.216274
1.81 -0.214595
1.82 -0.213924
1.83 -0.213972
1.84 -0.214421
1.85 -0.214926
1.86 -0.215115
1.87 -0.214687
1.88 -0.21338
1.89 -0.210988
1.9 -0.207368
1.91 -0.20245
1.92 -0.196239
1.93 -0.188778
1.94 -0.180245
1.95 -0.17096
1.96 -0.161239
1.97 -0.151447
1.98 -0.141985
1.99 -0.133276
2 -0.125749
2.01 -0.119896
2.02 -0.116181
2.03 -0.114825
2.04 -0.116074
2.05 -0.120096
2.06 -0.12696
2.07 -0.136635
2.08 -0.14898
2.09 -0.163822
2.1 -0.180791
2.11 -0.199255
2.12 -0.218637
2.13 -0.238283
2.14 -0.257479
2.15 -0.275469
2.16 -0.291477
2.17 -0.304603
2.18 -0.313906
2.19 -0.318886
2.2 -0.318933
2.21 -0.313536
2.22 -0.302298
2.23 -0.284954
2.24 -0.261385
2.25 -0.231426
2.26 -0.195104
2.27 -0.153221
2.28 -0.106316
2.29 -0.0550701
2.3 -0.000295229
2.31 0.0570849
2.32 0.116054
2.33 0.175507
2.34 0.234151
2.35 0.290819
2.36 0.344386
2.37 0.393773
2.38 0.437975
2.39 0.476085
2.4 0.507315
2.41 0.530795
2.42 0.545646
2.43 0.552138
2.44 0.550173
2.45 0.539835
2.46 0.521383
2.47 0.495251
2.48 0.462034
2.49 0.422333
2.5 0.376865
2.51 0.327086
2.52 0.274069
2.53 0.218932
2.54 0.162816
2.55 0.106855
2.56 0.0521518
2.57 -0.00017074
2.58 -0.0488768
2.59 -0.0933241
2.6 -0.132807
2.61 -0.16676
2.62 -0.194765
2.63 -0.216562
2.64 -0.232045
2.65 -0.241138
2.66 -0.243728
2.67 -0.240679
2.68 -0.232483
2.69 -0.21974
2.7 -0.203135
2.71 -0.18342
2.72 -0.161391
2.73 -0.137858
2.74 -0.11369
2.75 -0.0897922
2.76 -0.0669125
2.77 -0.0457382
2.78 -0.0268792
2.79 -0.0108562
2.8 0.00190928
2.81 0.0110401
2.82 0.0160631
2.83 0.0172102
2.84 0.0145161
2.85 0.00811409
2.86 -0.00177141
2.87 -0.0148362
2.88 -0.0307082
2.89 -0.0489867
2.9 -0.0692906
2.91 -0.0909265
2.92 -0.113393
2.93 -0.136197
2.94 -0.158866
2.95 -0.180959
2.96 -0.202077
2.97 -0.221854
2.98 -0.239849
2.99 -0.255969
3 -0.270063
3.01 -0.282041
3.02 -0.291877
3.03 -0.299597
3.04 -0.305281
3.05 -0.309038
3.06 -0.310906
3.07 -0.311253
3.08 -0.310291
3.09 -0.308246
3.1 -0.305342
3.11 -0.301798
3.12 -0.297821
3.13 -0.293602
3.14 -0.289313
3.15 -0.285109
3.16 -0.281095
3.17 -0.277348
3.18 -0.273917
3.19 -0.270825
3.2 -0.26807
3.21 -0.265633
3.22 -0.263494
3.23 -0.261571
3.24 -0.259806
3.25 -0.258137
3.26 -0.256502
3.27 -0.254848
3.28 -0.253127
3.29 -0.251302
3.3 -0.249334
3.31 -0.247221
3.32 -0.244967
3.33 -0.24258
3.34 -0.240082
3.35 -0.237497
3.36 -0.234853
3.37 -0.232177
3.38 -0.229493
3.39 -0.226817
3.4 -0.22415
3.41 -0.22148
3.42 -0.218778
3.43 -0.215997
3.44 -0.213071
3.45 -0.209918
3.46 -0.206394
3.47 -0.202401
3.48 -0.197811
3.49 -0.192484
3.5 -0.186279
3.51 -0.179057
3.52 -0.170685
3.53 -0.161042
3.54 -0.14989
3.55 -0.137268
3.56 -0.123141
3.57 -0.107498
3.58 -0.0903644
3.59 -0.0718049
3.6 -0.0519229
3.61 -0.0308619
3.62 -0.00873226
3.63 0.0141387
3.64 0.0374854
3.65 0.0610233
3.66 0.084447
3.67 0.107437
3.68 0.129667
3.69 0.150812
3.7 0.170401
3.71 0.188222
3.72 0.20402
3.73 0.217559
3.74 0.228645
3.75 0.237126
3.76 0.2429
3.77 0.245918
3.78 0.245951
3.79 0.243279
3.8 0.238064
3.81 0.230484
3.82 0.220763
3.83 0.209168
3.84 0.196001
3.85 0.181594
3.86 0.166254
3.87 0.150445
3.88 0.134548
3.89 0.118925
3.9 0.103923
3.91 0.0898658
3.92 0.0770495
3.93 0.0657329
3.94 0.0562898
3.95 0.0487903
3.96 0.0433158
3.97 0.0399277
3.98 0.038637
3.99 0.0394053
4 0.0421474
4.01 0.0467345
4.02 0.0531163
4.03 0.0609647
4.04 0.0700112
4.05 0.0800007
4.06 0.0906647
4.07 0.101729
4.08 0.11292
4.09 0.123969
4.1 0.134575
4.11 0.1445
4.12 0.15355
4.13 0.161544
4.14 0.168334
4.15 0.173805
4.16 0.177873
4.17 0.180488
4.18 0.181525
4.19 0.181076
4.2 0.179225
4.21 0.176047
4.22 0.171633
4.23 0.166096
4.24 0.159559
4.25 0.152157
4.26 0.143987
4.27 0.135237
4.28 0.126064
4.29 0.116601
4.3 0.106972
4.31 0.0972905
4.32 0.0876576
4.33 0.0781628
4.34 0.0689014
4.35 0.0599322
4.36 0.0512954
4.37 0.0430261
4.38 0.0351492
4.39 0.0276805
4.4 0.0206285
4.41 0.0139961
4.42 0.00781062
4.43 0.00205279
4.44 -0.00329492
4.45 -0.00823613
4.46 -0.0127728
4.47 -0.0169048
4.48 -0.0206289
4.49 -0.0239396
4.5 -0.0267999
4.51 -0.0292111
4.52 -0.0311749
4.53 -0.0326785
4.54 -0.0337093
4.55 -0.034256
4.56 -0.0343101
4.57 -0.0338663
4.58 -0.0328926
4.59 -0.0314082
4.6 -0.029443
4.61 -0.027015
4.62 -0.0241487
4.63 -0.0208749
4.64 -0.0172302
4.65 -0.0132569
4.66 -0.00898801
4.67 -0.00448705
4.68 0.000181298
4.69 0.00496182
4.7 0.00979923
4.71 0.0146394
4.72 0.0194304
4.73 0.0241237
4.74 0.0286644
4.75 0.0330115
4.76 0.0371391
4.77 0.0410211
4.78 0.0446378
4.79 0.0479755
4.8 0.0510264
4.81 0.0537879
4.82 0.0562464
4.83 0.0584127
4.84 0.0603089
4.85 0.0619462
4.86 0.0633367
4.87 0.0644922
4.88 0.0654237
4.89 0.0661402
4.9 0.0666373
4.91 0.0669202
4.92 0.066998
4.93 0.0668672
4.94 0.0665206
4.95 0.0659484
4.96 0.0651385
4.97 0.0640769
4.98 0.0627342
4.99 0.061094
5 0.0591557
5.01 0.0569073
5.02 0.0543399
5.03 0.0514484
5.04 0.0482322
5.05 0.0446958
5.06 0.0408348
5.07 0.0366676
5.08 0.0322332
5.09 0.0275605
5.1 0.0226838
5.11 0.0176423
5.12 0.0124791
5.13 0.0072403
5.14 0.00197543
5.15 -0.00325946
5.16 -0.00841431
5.17 -0.0134418
5.18 -0.0182974
5.19 -0.0229403
5.2 -0.0273344
5.21 -0.0314491
5.22 -0.0352458
5.23 -0.0387015
5.24 -0.0418238
5.25 -0.0446102
5.26 -0.0470648
5.27 -0.0491976
5.28 -0.0510245
5.29 -0.0525658
5.3 -0.0538363
5.31 -0.0548633
5.32 -0.0556912
5.33 -0.0563498
5.34 -0.0568685
5.35 -0.0572751
5.36 -0.0575949
5.37 -0.05785
5.38 -0.0580573
5.39 -0.058231
5.4 -0.0583816
5.41 -0.0585121
5.42 -0.0586207
5.43 -0.0587012
5.44 -0.0587433
5.45 -0.058733
5.46 -0.0586504
5.47 -0.0584718
5.48 -0.0581815
5.49 -0.057759
5.5 -0.0571842
5.51 -0.0564388
5.52 -0.0555061
5.53 -0.0543723
5.54 -0.0530191
5.55 -0.0514322
5.56 -0.0496229
5.57 -0.0475924
5.58 -0.0453457
5.59 -0.0428912
5.6 -0.0402402
5.61 -0.0374069
5.62 -0.0344029
5.63 -0.0312429
5.64 -0.0279571
5.65 -0.0245645
5.66 -0.021084
5.67 -0.0175336
5.68 -0.0139301
5.69 -0.0102885
5.7 -0.00662206
5.71 -0.00294275
5.72 0.000738627
5.73 0.00441462
5.74 0.00807924
5.75 0.0117276
5.76 0.0153555
5.77 0.0189591
5.78 0.0225334
5.79 0.0260714
5.8 0.029569
5.81 0.0330184
5.82 0.0364097
5.83 0.0397313
5.84 0.0429691
5.85 0.046107
5.86 0.0491235
5.87 0.0519896
5.88 0.0546933
5.89 0.0572129
5.9 0.059527
5.91 0.0616148
5.92 0.0634575
5.93 0.0650381
5.94 0.0663367
5.95 0.0673272
5.96 0.0680266
5.97 0.0684356
5.98 0.06856
5.99 0.0684111
6 0.0680055
6.01 0.0673651
6.02 0.0665129
6.03 0.0654728
6.04 0.0642961
6.05 0.0630198
6.06 0.0616821
6.07 0.0603214
6.08 0.0589748
6.09 0.0576771
6.1 0.0564617
6.11 0.0553644
6.12 0.054398
6.13 0.0535753
6.14 0.0529019
6.15 0.0523761
6.16 0.0519878
6.17 0.0517198
6.18 0.051548
6.19 0.0514408
6.2 0.0513518
6.21 0.051237
6.22 0.0510495
6.23 0.0507403
6.24 0.0502599
6.25 0.0495597
6.26 0.0485898
6.27 0.0472821
6.28 0.0456258
6.29 0.0435934
6.3 0.041166
6.31 0.0383336
6.32 0.0350957
6.33 0.0314619
6.34 0.0274479
6.35 0.0230593
6.36 0.0183696
6.37 0.0134265
6.38 0.00828461
6.39 0.00300359
6.4 -0.00235311
6.41 -0.00772002
6.42 -0.0130304
6.43 -0.0182034
6.44 -0.0231853
6.45 -0.0279214
6.46 -0.0323634
6.47 -0.0364713
6.48 -0.0402137
6.49 -0.0435689
6.5 -0.0465228
6.51 -0.0490395
6.52 -0.0511675
6.53 -0.0529266
6.54 -0.0543453
6.55 -0.0554593
6.56 -0.0563103
6.57 -0.0569444
6.58 -0.0574104
6.59 -0.0577527
6.6 -0.0580359
6.61 -0.058307
6.62 -0.0586085
6.63 -0.0589777
6.64 -0.0594451
6.65 -0.0600339
6.66 -0.0607589
6.67 -0.0616402
6.68 -0.0626595
6.69 -0.0638039
6.7 -0.065053
6.71 -0.0663793
6.72 -0.0677495
6.73 -0.069126
6.74 -0.0704679
6.75 -0.071721
6.76 -0.0728471
6.77 -0.0738063
6.78 -0.0745619
6.79 -0.0750822
6.8 -0.0753414
6.81 -0.0753209
6.82 -0.0750098
6.83 -0.0743777
6.84 -0.0734593
6.85 -0.0722719
6.86 -0.0708391
6.87 -0.069192
6.88 -0.0673674
6.89 -0.0654071
6.9 -0.0633566
6.91 -0.0612639
6.92 -0.0591849
6.93 -0.0571664
6.94 -0.0552519
6.95 -0.0534807
6.96 -0.0518864
6.97 -0.050496
6.98 -0.049329
6.99 -0.0484185
7 -0.0477468
7.01 -0.0473043
7.02 -0.0470752
7.03 -0.0470364
7.04 -0.047158
7.05 -0.0474045
7.06 -0.047736
7.07 -0.0481096
7.08 -0.0484734
7.09 -0.0487833
7.1 -0.0489974
7.11 -0.0490773
7.12 -0.0489896
7.13 -0.0487065
7.14 -0.0482075
7.15 -0.0474593
7.16 -0.0464748
7.17 -0.0452624
7.18 -0.0438361
7.19 -0.0422169
7.2 -0.0404335
7.21 -0.0385202
7.22 -0.0365164
7.23 -0.0344651
7.24 -0.0324192
7.25 -0.0304252
7.26 -0.0285276
7.27 -0.026768
7.28 -0.0251842
7.29 -0.0238082
7.3 -0.0226656
7.31 -0.0217964
7.32 -0.0211943
7.33 -0.0208547
7.34 -0.020769
7.35 -0.0209206
7.36 -0.0212851
7.37 -0.0218313
7.38 -0.0225223
7.39 -0.0233208
7.4 -0.0241709
7.41 -0.0250235
7.42 -0.0258316
7.43 -0.0265498
7.44 -0.0271357
7.45 -0.0275512
7.46 -0.0277637
7.47 -0.0277282
7.48 -0.0274378
7.49 -0.026889
7.5 -0.0260816
7.51 -0.0250235
7.52 -0.0237304
7.53 -0.0222255
7.54 -0.0205385
7.55 -0.018697
7.56 -0.0167528
7.57 -0.0147528
7.58 -0.0127418
7.59 -0.0107644
7.6 -0.00886362
7.61 -0.00707949
7.62 -0.00544793
7.63 -0.00401449
7.64 -0.00279684
7.65 -0.0018052
7.66 -0.00104727
7.67 -0.000522886
7.68 -0.000224101
7.69 -0.000135444
7.7 -0.000234451
7.71 -0.000501039
7.72 -0.000890301
7.73 -0.00135846
7.74 -0.00186374
7.75 -0.00236299
7.76 -0.00281303
7.77 -0.00317193
7.78 -0.00340032
7.79 -0.00344916
7.8 -0.0032906
7.81 -0.00290639
7.82 -0.00227925
7.83 -0.00139883
7.84 -0.000261881
7.85 0.00112769
7.86 0.00275906
7.87 0.00462792
7.88 0.00670067
7.89 0.00894006
7.9 0.0113126
7.91 0.0137819
7.92 0.0163095
7.93 0.0188564
7.94 0.0213837
7.95 0.0238481
7.96 0.0262121
7.97 0.0284471
7.98 0.0305261
7.99 0.032427
8 0.0341324
8.01 0.0356305
8.02 0.0369146
8.03 0.0379705
8.04 0.0388072
8.05 0.0394423
8.06 0.0398885
8.07 0.0401618
8.08 0.0402807
8.09 0.0402654
8.1 0.0401371
8.11 0.0399132
8.12 0.0396188
8.13 0.0392773
8.14 0.0389064
8.15 0.0385221
8.16 0.0381376
8.17 0.0377636
8.18 0.0374081
8.19 0.0370777
8.2 0.0367748
8.21 0.0364982
8.22 0.0362455
8.23 0.036013
8.24 0.0357956
8.25 0.0355873
8.26 0.0353818
8.27 0.0351722
8.28 0.0349515
8.29 0.0347148
8.3 0.0344573
8.31 0.0341756
8.32 0.033867
8.33 0.0335298
8.34 0.0331635
8.35 0.0327665
8.36 0.0323394
8.37 0.0318846
8.38 0.0314026
8.39 0.0308938
8.4 0.0303579
8.41 0.0297935
8.42 0.0291984
8.43 0.028567
8.44 0.0278934
8.45 0.027173
8.46 0.0263978
8.47 0.0255591
8.48 0.0246472
8.49 0.0236519
8.5 0.022563
8.51 0.0213653
8.52 0.0200474
8.53 0.0186074
8.54 0.017039
8.55 0.0153384
8.56 0.0135039
8.57 0.0115368
8.58 0.00944087
8.59 0.00721836
8.6 0.00487933
8.61 0.00244392
8.62 -7.20779e-05
8.63 -0.00265078
8.64 -0.00527267
8.65 -0.00791715
8.66 -0.0105632
8.67 -0.0131882
8.68 -0.0157692
8.69 -0.0182894
8.7 -0.0207334
8.71 -0.0230886
8.72 -0.0253456
8.73 -0.0274993
8.74 -0.0295482
8.75 -0.0314918
8.76 -0.0333366
8.77 -0.0351011
8.78 -0.0368009
8.79 -0.0384553
8.8 -0.0400855
8.81 -0.041715
8.82 -0.0433679
8.83 -0.0450711
8.84 -0.0468526
8.85 -0.04873
8.86 -0.0507213
8.87 -0.0528406
8.88 -0.0550973
8.89 -0.0574958
8.9 -0.0600346
8.91 -0.0627106
8.92 -0.0655116
8.93 -0.0684082
8.94 -0.0713738
8.95 -0.0743768
8.96 -0.0773813
8.97 -0.0803476
8.98 -0.0832336
8.99 -0.0859903
9 -0.0885627
9.01 -0.0909171
9.02 -0.0930137
9.03 -0.0948166
9.04 -0.0962944
9.05 -0.0974219
9.06 -0.0981804
9.07 -0.0985472
9.08 -0.0985037
9.09 -0.0980831
9.1 -0.0973001
9.11 -0.096177
9.12 -0.094743
9.13 -0.0930341
9.14 -0.0910916
9.15 -0.0889575
9.16 -0.0866804
9.17 -0.0843241
9.18 -0.0819396
9.19 -0.0795759
9.2 -0.0772796
9.21 -0.0750928
9.22 -0.0730524
9.23 -0.0711933
9.24 -0.0695507
9.25 -0.0681236
9.26 -0.0669165
9.27 -0.0659251
9.28 -0.0651369
9.29 -0.0645311
9.3 -0.0640797
9.31 -0.0637498
9.32 -0.0635005
9.33 -0.0632777
9.34 -0.0630337
9.35 -0.0627193
9.36 -0.0622861
9.37 -0.061687
9.38 -0.0608783
9.39 -0.059815
9.4 -0.058443
9.41 -0.0567569
9.42 -0.0547387
9.43 -0.0523778
9.44 -0.049672
9.45 -0.0466269
9.46 -0.043256
9.47 -0.0395753
9.48 -0.0355975
9.49 -0.0313817
9.5 -0.0269662
9.51 -0.0223923
9.52 -0.0177029
9.53 -0.0129415
9.54 -0.00815034
9.55 -0.00337042
9.56 0.00135469
9.57 0.00599544
9.58 0.0105264
9.59 0.0149283
9.6 0.0191887
9.61 0.0233016
9.62 0.0272682
9.63 0.0310944
9.64 0.0347866
9.65 0.0383769
9.66 0.0418899
9.67 0.0453532
9.68 0.0487967
9.69 0.0522512
9.7 0.055747
9.71 0.0593141
9.72 0.0629888
9.73 0.066786
9.74 0.0707222
9.75 0.0748085
9.76 0.0790498
9.77 0.0834446
9.78 0.0879848
9.79 0.0926568
9.8 0.0974464
9.81 0.102314
9.82 0.107229
9.83 0.112153
9.84 0.117049
9.85 0.121876
9.86 0.126593
9.87 0.131159
9.88 0.135515
9.89 0.139641
9.9 0.143507
9.91 0.147088
9.92 0.150363
9.93 0.153319
9.94 0.155948
9.95 0.15825
9.96 0.160199
9.97 0.16184
9.98 0.163192
9.99 0.164276
10 0.16512
10.01 0.165752
10.02 0.166202
10.03 0.166503
10.04 0.166674
10.05 0.16676
10.06 0.166785
10.07 0.166772
10.08 0.166737
10.09 0.166693
10.1 0.166646
10.11 0.166598
10.12 0.166542
10.13 0.166468
10.14 0.16636
10.15 0.166196
10.16 0.165952
10.17 0.165602
10.18 0.165118
10.19 0.164469
10.2 0.163605
10.21 0.162516
10.22 0.161176
10.23 0.159566
10.24 0.15767
10.25 0.155475
10.26 0.152977
10.27 0.150176
10.28 0.147052
10.29 0.143645
10.3 0.139979
10.31 0.136078
10.32 0.131973
10.33 0.127697
10.34 0.123289
10.35 0.118787
10.36 0.114231
10.37 0.10967
10.38 0.105143
10.39 0.100687
10.4 0.0963353
10.41 0.0921172
10.42 0.0880572
10.43 0.0841745
10.44 0.0804998
10.45 0.0770252
10.46 0.0737483
10.47 0.0706627
10.48 0.0677567
10.49 0.0650137
10.5 0.0624125
10.51 0.0599286
10.52 0.05754
10.53 0.0552084
10.54 0.0529029
10.55 0.0505946
10.56 0.0482561
10.57 0.0458624
10.58 0.0433919
10.59 0.040827
10.6 0.0381451
10.61 0.0353457
10.62 0.0324293
10.63 0.0294004
10.64 0.0262687
10.65 0.0230492
10.66 0.0197616
10.67 0.0164299
10.68 0.0130828
10.69 0.00975525
10.7 0.00648017
10.71 0.00329117
10.72 0.000221792
10.73 -0.00269536
10.74 -0.00542949
10.75 -0.00795244
10.76 -0.0102192
10.77 -0.0122209
10.78 -0.0139477
10.79 -0.0153891
10.8 -0.0165403
10.81 -0.0174013
10.82 -0.0179775
10.83 -0.018279
10.84 -0.0183024
10.85 -0.0180828
10.86 -0.0176497
10.87 -0.017029
10.88 -0.0162488
10.89 -0.0153383
10.9 -0.0143275
10.91 -0.013246
10.92 -0.0121214
10.93 -0.0109853
10.94 -0.00986285
10.95 -0.00877537
10.96 -0.00774075
10.97 -0.0067733
10.98 -0.00588351
10.99 -0.00507796
11 -0.00436548
11.01 -0.00374058
11.02 -0.00319538
11.03 -0.00272135
11.04 -0.00230728
11.05 -0.00193973
11.06 -0.00160356
11.07 -0.00128248
11.08 -0.000958266
11.09 -0.000612225
11.1 -0.000228321
11.11 0.000208419
11.12 0.000711331
11.13 0.00129171
11.14 0.0019585
11.15 0.00271797
11.16 0.00358004
11.17 0.00454163
11.18 0.00559637
11.19 0.00673823
11.2 0.00795842
11.21 0.00924564
11.22 0.0105863
11.23 0.0119648
11.24 0.0133643
11.25 0.0147634
11.26 0.0161423
11.27 0.0174815
11.28 0.0187617
11.29 0.0199641
11.3 0.021071
11.31 0.022066
11.32 0.0229254
11.33 0.0236383
11.34 0.0241993
11.35 0.0246004
11.36 0.0248365
11.37 0.0249045
11.38 0.0248043
11.39 0.0245379
11.4 0.0241007
11.41 0.0235038
11.42 0.0227629
11.43 0.0218889
11.44 0.0208945
11.45 0.0197931
11.46 0.0185993
11.47 0.0173281
11.48 0.0159921
11.49 0.014609
11.5 0.0131959
11.51 0.0117662
11.52 0.0103324
11.53 0.00890534
11.54 0.00749445
11.55 0.00610716
11.56 0.00475073
11.57 0.00342838
11.58 0.00213944
11.59 0.000882384
11.6 -0.000346447
11.61 -0.00155276
11.62 -0.00274417
11.63 -0.00393001
11.64 -0.00512209
11.65 -0.00633421
11.66 -0.00757928
11.67 -0.00887108
11.68 -0.0102236
11.69 -0.0116506
11.7 -0.0131654
11.71 -0.0147806
11.72 -0.0165133
11.73 -0.0183746
11.74 -0.020366
11.75 -0.0224931
11.76 -0.0247586
11.77 -0.0271631
11.78 -0.0297044
11.79 -0.0323778
11.8 -0.0351811
11.81 -0.0381032
11.82 -0.0411245
11.83 -0.0442297
11.84 -0.0474014
11.85 -0.0506207
11.86 -0.0538671
11.87 -0.0571191
11.88 -0.0603529
11.89 -0.0635429
11.9 -0.066668
11.91 -0.0697069
11.92 -0.0726392
11.93 -0.0754462
11.94 -0.0781106
11.95 -0.0806174
11.96 -0.082946
11.97 -0.0850825
11.98 -0.0870296
11.99 -0.088783
12 -0.0903409
12.01 -0.0917044
12.02 -0.092877
12.03 -0.0938644
12.04 -0.0946678
12.05 -0.0952954
12.06 -0.0957693
12.07 -0.0961024
12.08 -0.0963084
12.09 -0.0964013
12.1 -0.0963953
12.11 -0.0963044
12.12 -0.0961398
12.13 -0.0959138
12.14 -0.0956418
12.15 -0.0953334
12.16 -0.0949965
12.17 -0.0946373
12.18 -0.0942602
12.19 -0.0938677
12.2 -0.09346
12.21 -0.0930351
12.22 -0.0925909
12.23 -0.0921229
12.24 -0.091625
12.25 -0.0910905
12.26 -0.0905115
12.27 -0.0898796
12.28 -0.0891839
12.29 -0.0884121
12.3 -0.0875601
12.31 -0.0866198
12.32 -0.0855842
12.33 -0.0844469
12.34 -0.0832029
12.35 -0.0818484
12.36 -0.0803775
12.37 -0.0787853
12.38 -0.0770808
12.39 -0.0752669
12.4 -0.0733483
12.41 -0.0713315
12.42 -0.0692243
12.43 -0.0670366
12.44 -0.0647778
12.45 -0.0624598
12.46 -0.0601017
12.47 -0.0577188
12.48 -0.0553275
12.49 -0.0529451
12.5 -0.0505893
12.51 -0.0482785
12.52 -0.0460334
12.53 -0.0438787
12.54 -0.0418281
12.55 -0.0398996
12.56 -0.0381104
12.57 -0.0364771
12.58 -0.0350152
12.59 -0.0337387
12.6 -0.0326653
12.61 -0.0318179
12.62 -0.0311897
12.63 -0.0307873
12.64 -0.0306148
12.65 -0.0306739
